Time (s),Temperature (°C)
1,361.9
2,322.7
3,298.1
4,265.6
5,240.7
6,213.7
7,194.5
8,164.8
9,150.8
10,135.5
11,123.3
12,114.7
13,104.8
14,104.3
15,89.8
16,80.0
17,66.4
18,60.9
19,51.9
20,50.3
21,50.5
22,46.7
23,38.5
24,29.0
25,35.0
26,39.0
27,32.0
28,27.0
29,22.9
30,26.1
31,16.0
32,18.8
33,10.5
34,3.4
35,8.8
36,10.9
37,10.2
38,11.1
39,13.5
40,13.9
